# sigma_11 [MPa]
0.0000
0.1053
0.2101
0.3145
0.4184
0.5219
0.6249
0.7274
0.8296
0.9312
1.0325
1.1333
1.2337
1.3336
1.4331
1.5322
1.6308
1.7291
1.8269
1.9243
2.0212
2.1178
2.2140
2.3097
2.4050
2.5000
2.5945
2.6887
2.7824
2.8757
2.9687
3.0612
3.1534
3.2452
3.3366
3.4276
3.5182
3.6085
3.6984
3.7879
3.8770
3.9658
4.0542
4.1423
4.2299
4.3173
4.4042
4.4908
4.5771
4.6629
4.7485
4.8337
4.9185
5.0030
5.0872
5.1710
5.2545
5.3376
5.4204
5.5029
5.5850
5.6668
5.7483
5.8295
5.9103
5.9908
6.0710
6.1509
6.2304
6.3097
6.3886
6.4672
6.5455
6.6235
6.7012
6.7786
6.8557
6.9324
7.0089
7.0851
7.1610
7.2366
7.3119
7.3869
7.4616
7.5361
7.6102
7.6841
7.7577
7.8310
7.9040
7.9768
8.0492
8.1214
8.1934
8.2650
8.3364
8.4075
8.4784
8.5490
8.6193
8.6893
8.7591
8.8287
8.8980
8.9670
9.0358
9.1043
9.1726
9.2406
9.3084
9.3759
9.4432
9.5103
9.5771
9.6436
9.7099
9.7760
9.8419
9.9075
9.9729
10.0380
10.1029
10.1676
10.2321
10.2963
10.3603
10.4241
10.4877
10.5511
10.6142
10.6771
10.7398
10.8023
10.8645
10.9266
10.9884
11.0501
11.1115
11.1727
11.2337
11.2945
11.3551
11.4156
11.4758
11.5358
11.5956
11.6552
11.7146
11.7738
11.8329
11.8917
11.9503
12.0088
12.0671
12.1252
12.1831
12.2408
12.2983
12.3557
12.4129
12.4699
12.5267
12.5833
12.6398
12.6961
12.7522
12.8082
12.8640
12.9196
12.9750
13.0303
13.0854
13.1404
13.1952
13.2498
13.3043
13.3586
13.4127
13.4667
13.5206
13.5742
13.6278
13.6811
13.7344
13.7874
13.8404
13.8931
13.9458
13.9983
14.0506
14.1028
14.1549
14.2068
14.2586
14.3102
14.3617
14.4131
14.4643
14.5154
14.5664
14.6172
14.6679
14.7185
14.7689
14.8192
14.8694
14.9195
14.9694
15.0192
15.0689
15.1185
15.1679
15.2173
15.2665
15.3156
15.3646
15.4134
15.4622
15.5108
15.5594
15.6078
15.6561
15.7043
15.7524
15.8004
15.8483
15.8961
15.9437
15.9913
16.0388
16.0861
16.1334
16.1806
16.2277
16.2747
16.3215
16.3683
16.4150
16.4616
16.5082
16.5546
16.6009
16.6472
16.6933
16.7394
16.7854
16.8313
16.8772
16.9229
16.9686
17.0141
17.0597
17.1051
17.1504
17.1957
17.2409
17.2860
17.3311
17.3761
17.4210
17.4658
17.5106
17.5553
17.5999
17.6445
17.6890
17.7334
17.7778
17.8221
17.8663
17.9105
17.9547
17.9987
18.0428
18.0867
18.1306
18.1745
18.2183
18.2620
18.3057
18.3493
18.3929
18.4364
18.4799
18.5234
18.5668
18.6101
18.6534
18.6967
18.7399
18.7831
18.8262
18.8693
18.9124
18.9554
18.9984
19.0413
19.0843
19.1271
19.1700
19.2128
19.2556
19.2983
19.3411
19.3838
19.4264
19.4691
19.5117
19.5543
19.5968
19.6394
19.6819
19.7244
19.7669
19.8093
19.8518
19.8942
19.9366
19.9790
20.0213
20.0637
20.1060
20.1484
20.1907
20.2330
20.2753
20.3176
20.3599
20.4022
20.4445
20.4867
20.5290
20.5713
20.6135
20.6558
20.6980
20.7403
20.7825
20.8248
20.8671
20.9093
20.9516
20.9939
21.0362
21.0785
21.1208
21.1631
21.2054
21.2477
21.2901
21.3324
21.3748
21.4172
21.4596
21.5020
21.5444
21.5869
21.6294
21.6719
21.7144
21.7569
21.7995
21.8420
21.8846
21.9273
21.9699
22.0126
22.0553
22.0981
22.1408
22.1836
22.2265
22.2693
22.3122
22.3552
22.3981
22.4412
22.4842
22.5273
22.5704
22.6135
22.6567
22.7000
22.7433
22.7866
22.8300
22.8734
22.9168
22.9603
23.0039
23.0475
23.0911
23.1348
23.1786
23.2224
23.2663
23.3102
23.3541
23.3981
23.4422
23.4864
23.5305
23.5748
23.6191
23.6635
23.7079
23.7524
23.7970
23.8416
23.8863
23.9310
23.9759
24.0208
24.0657
24.1107
24.1558
24.2010
24.2463
24.2916
24.3370
24.3824
24.4280
24.4736
24.5193
24.5651
24.6109
24.6568
24.7029
24.7490
24.7951
24.8414
24.8877
24.9342
24.9807
25.0273
25.0740
25.1208
25.1677
25.2146
25.2617
25.3088
25.3561
25.4034
25.4509
25.4984
25.5460
25.5938
25.6416
25.6895
25.7375
25.7857
25.8339
25.8822
25.9307
25.9792
26.0279
26.0766
26.1255
26.1745
26.2236
26.2728
26.3221
26.3715
26.4210
26.4707
26.5205
26.5703
26.6203
26.6705
26.7207
26.7711
26.8215
26.8721
26.9229
26.9737
27.0247
27.0758
27.1270
27.1783
27.2298
27.2814
27.3332
27.3850
27.4370
27.4891
27.5414
27.5938
27.6463
27.6990
27.7518
27.8048
27.8579
27.9111
27.9645
28.0180
28.0716
28.1254
28.1794
28.2334
28.2877
28.3421
28.3966
28.4513
28.5061
28.5611
28.6162
28.6715
28.7269
28.7825
28.8383
28.8942
28.9502
29.0065
29.0628
29.1194
29.1761
29.2330
29.2900
29.3472
29.4045
29.4621
29.5198
29.5776
29.6357
29.6939
29.7522
29.8108
29.8695
29.9284
29.9875
30.0467
30.1061
30.1657
30.2255
30.2854
30.3456
30.4059
30.4664
30.5271
30.5879
30.6490
30.7102
30.7716
30.8333
30.8951
30.9570
31.0192
31.0816
31.1442
31.2069
31.2699
31.3330
31.3964
31.4599
31.5237
31.5876
31.6518
31.7161
31.7807
31.8454
31.9104
31.9756
32.0409
32.1065
32.1723
32.2383
32.3045
32.3709
32.4376
32.5044
32.5715
32.6388
32.7063
32.7740
32.8419
32.9100
32.9784
33.0470
33.1158
33.1849
33.2541
33.3236
33.3933
33.4633
33.5334
33.6038
33.6745
33.7453
33.8164
33.8877
33.9593
34.0311
34.1031
34.1754
34.2479
34.3207
34.3937
34.4669
34.5404
34.6141
34.6881
34.7623
34.8367
34.9114
34.9864
35.0616
35.1370
35.2127
35.2887
35.3649
35.4414
35.5181
35.5951
35.6723
35.7498
35.8276
35.9056
35.9839
36.0624
36.1412
36.2203
36.2996
36.3793
36.4591
36.5393
36.6197
36.7004
36.7814
36.8626
36.9441
37.0259
37.1080
37.1903
37.2729
37.3558
37.4390
37.5225
37.6062
37.6902
37.7746
37.8592
37.9441
38.0292
38.1147
38.2005
38.2865
38.3729
38.4595
38.5464
38.6337
38.7212
38.8090
38.8972
38.9856
39.0743
39.1634
39.2527
39.3423
39.4323
39.5225
39.6131
39.7040
39.7951
39.8866
39.9784
40.0706
40.1630
40.2558
40.3488
40.4422
40.5359
40.6299
40.7243
40.8189
40.9139
41.0093
41.1049
41.2009
41.2972
41.3938
41.4908
41.5880
41.6857
41.7836
41.8819
41.9805
42.0795
42.1788
42.2785
42.3784
42.4788
42.5794
42.6804
42.7818
42.8835
42.9855
43.0879
43.1907
43.2938
43.3972
43.5010
43.6052
43.7097
43.8146
43.9198
44.0254
44.1313
44.2376
44.3443
44.4513
44.5587
44.6665
44.7746
44.8831
44.9920
45.1012
45.2109
45.3208
45.4312
45.5419
45.6530
45.7645
45.8764
45.9886
46.1013
46.2143
46.3277
46.4414
46.5556
46.6701
46.7851
46.9004
47.0161
47.1322
47.2487
47.3656
47.4829
47.6006
47.7187
47.8372
47.9561
48.0753
48.1950
48.3151
48.4356
48.5565
48.6778
48.7996
48.9217
49.0442
49.1672
49.2906
49.4143
49.5385
49.6632
49.7882
49.9136
50.0395
50.1658
50.2925
50.4197
50.5472
50.6752
50.8037
50.9325
51.0618
51.1915
51.3217
51.4523
51.5833
51.7148
51.8467
51.9790
52.1118
52.2450
52.3787
52.5128
52.6473
52.7823
52.9178
53.0537
53.1900
53.3268
53.4641
53.6018
53.7400
53.8786
54.0177
54.1572
54.2972
54.4377
54.5786
54.7200
54.8619
55.0042
55.1470
55.2903
55.4340
55.5782
55.7229
55.8681
56.0137
56.1599
56.3065
56.4535
56.6011
56.7491
56.8977
57.0467
57.1962
57.3462
57.4967
57.6476
57.7991
57.9511
58.1035
58.2565
58.4099
58.5639
58.7183
58.8733
59.0287
59.1847
59.3411
59.4981
59.6556
59.8136
59.9721
60.1311
60.2906
60.4507
60.6112
60.7723
60.9339
61.0960
61.2586
61.4218
61.5855
61.7497
61.9144
62.0797
62.2455
62.4118
62.5787
62.7461
62.9140
63.0825
63.2515
63.4211
63.5912
63.7618
63.9330
64.1047
64.2770
64.4498
64.6232
64.7971
64.9715
65.1466
65.3222
65.4983
65.6750
65.8522
66.0301
66.2084
66.3874
66.5669
66.7470
66.9276
67.1088
67.2906
67.4729
67.6559
67.8394
68.0234
68.2081
68.3933
68.5792
68.7656
68.9525
69.1401
69.3283
69.5170
69.7063
69.8963
70.0868
70.2779
70.4696
70.6619
70.8548
71.0483
71.2424
71.4371
71.6324
71.8283
72.0248
72.2219
72.4197
72.6180
72.8170
73.0165
73.2167
73.4175
73.6190
73.8210
74.0237
74.2270
74.4309
74.6354
74.8406
75.0464
75.2528
75.4599
75.6676
75.8759
76.0848
76.2944
76.5047
76.7156
76.9271
77.1393
77.3521
77.5655
77.7797
77.9944
78.2098
78.4259
78.6426
78.8600
79.0780
79.2967
79.5161
79.7361
79.9568
80.1781
80.4001
80.6228
80.8462
81.0702
81.2949
81.5203
81.7463
81.9730
82.2004
82.4285
82.6573
82.8867
83.1169
83.3477
83.5792
83.8114
84.0443
84.2779
84.5122
84.7472
84.9829
85.2192
85.4563
85.6941
85.9326
86.1718
86.4117
86.6523
86.8936
87.1357
87.3784
87.6219
87.8660
88.1109
88.3566
88.6029
88.8500
89.0978
89.3463
89.5955
89.8455
90.0962
90.3477
90.5998
90.8528
91.1064
91.3608
91.6159
91.8718
92.1284
92.3858
92.6439
92.9028
93.1624
93.4228
93.6839
93.9458
94.2084
94.4718
94.7360
95.0009
95.2666
95.5330
95.8003
